# Matter power spectrum P(k) at redshift z=2.8
# for k=1.03955e-05 to 53.1956 h/Mpc,
# number of wavenumbers equal to 620
#    1:k (h/Mpc)              2:P (Mpc/h)^3        
       1.039554593366e-05       5.735351354141e+00 
       2.321625872476e-05       1.241344800908e+01 
       3.608162361189e-05       1.896319410641e+01 
       4.902593216740e-05       2.545947313281e+01 
       6.208403777342e-05       3.194416211493e+01 
       7.529166351078e-05       3.844820177514e+01 
       8.868571980328e-05       4.499776272573e+01 
       1.023046360059e-04       5.161675830971e+01 
       1.161887101575e-04       5.832812301402e+01 
       1.303804811523e-04       6.515457852887e+01 
       1.449251275914e-04       7.211915888293e+01 
       1.598708975225e-04       7.924561345342e+01 
       1.752695731100e-04       8.655874711610e+01 
       1.911769739295e-04       9.408472674019e+01 
       2.076535019659e-04       1.018513733239e+02 
       2.247647303764e-04       1.098884481322e+02 
       2.425820365134e-04       1.182279391540e+02 
       2.611832773708e-04       1.269043491247e+02 
       2.806535022682e-04       1.359549833870e+02 
       3.010856929055e-04       1.454202338676e+02 
       3.225815145524e-04       1.553438503650e+02 
       3.452520536855e-04       1.657731858572e+02 
       3.692185065006e-04       1.767593991405e+02 
       3.946127691316e-04       1.883575889808e+02 
       4.215778641091e-04       2.006268286354e+02 
       4.502681190242e-04       2.136300617066e+02 
       4.808489937476e-04       2.274338099695e+02 
       5.134964341804e-04       2.421076412813e+02 
       5.483956171584e-04       2.577233395974e+02 
       5.857389482102e-04       2.743537205171e+02 
       6.257231883267e-04       2.920710551217e+02 
       6.685456253480e-04       3.109450760628e+02 
       7.143992765011e-04       3.310405925155e+02 
       7.634672135018e-04       3.524147825615e+02 
       8.159162353344e-04       3.751143050369e+02 
       8.718902605670e-04       3.991724305241e+02 
       9.315039436829e-04       4.246064444755e+02 
       9.948371036618e-04       4.514156095678e+02 
       1.061930554494e-03       4.795799288057e+02 
       1.132783826807e-03       5.090599168562e+02 
       1.207355072330e-03       5.397974219338e+02 
       1.285563181864e-03       5.717174763787e+02 
       1.367291876660e-03       6.047294449456e+02 
       1.452395310759e-03       6.387314587434e+02 
       1.540704590804e-03       6.736187293084e+02 
       1.632034595892e-03       7.092793893515e+02 
       1.726190550459e-03       7.456004967672e+02 
       1.822973935770e-03       7.824706620129e+02 
       1.922187482213e-03       8.197821831781e+02 
       2.023639132649e-03       8.574326436159e+02 
       2.127144985949e-03       8.953260643209e+02 
       2.232531311321e-03       9.333736120912e+02 
       2.339635769667e-03       9.714939365613e+02 
       2.448307994782e-03       1.009613411739e+03 
       2.558409683680e-03       1.047665635222e+03 
       2.669814329643e-03       1.085591498732e+03 
       2.782406710372e-03       1.123338600882e+03 
       2.896082221162e-03       1.160860823526e+03 
       3.010746122088e-03       1.198116735623e+03 
       3.126312750042e-03       1.235071425133e+03 
       3.242704731602e-03       1.271693764518e+03 
       3.359852221003e-03       1.307956583215e+03 
       3.477692178583e-03       1.343836723804e+03 
       3.596167698542e-03       1.379313916290e+03 
       3.715227390163e-03       1.414371274512e+03 
       3.834824813398e-03       1.448993846257e+03 
       3.954917967587e-03       1.483169506185e+03 
       4.075468830736e-03       1.516887925203e+03 
       4.196442945959e-03       1.550140273061e+03 
       4.317809051348e-03       1.582919853982e+03 
       4.439538749395e-03       1.615221107354e+03 
       4.561606212177e-03       1.647039529043e+03 
       4.683987918652e-03       1.678371838874e+03 
       4.806662420714e-03       1.709215679490e+03 
       4.929610134858e-03       1.739569692145e+03 
       5.052813156653e-03       1.769433136177e+03 
       5.176255095446e-03       1.798806546594e+03 
       5.299920927018e-03       1.827690216982e+03 
       5.423796862150e-03       1.856084584088e+03 
       5.547870229274e-03       1.883993058502e+03 
       5.672129369620e-03       1.911416313699e+03 
       5.796563543411e-03       1.938357346151e+03 
       5.921162845873e-03       1.964818746461e+03 
       6.045918131938e-03       1.990804208102e+03 
       6.170820948655e-03       2.016315517251e+03 
       6.295863474469e-03       2.041357097762e+03 
       6.421038464583e-03       2.065931790187e+03 
       6.546339201744e-03       2.090043531182e+03 
       6.671759451864e-03       2.113696746955e+03 
       6.797293423941e-03       2.136894798899e+03 
       6.922935733829e-03       2.159640980487e+03 
       7.048681371440e-03       2.181940948418e+03 
       7.174525671028e-03       2.203797367278e+03 
       7.300464284221e-03       2.225214710990e+03 
       7.426493155525e-03       2.246198431626e+03 
       7.552608500044e-03       2.266752603481e+03 
       7.678806783202e-03       2.286879659814e+03 
       7.805084702251e-03       2.306586427130e+03 
       7.931439169404e-03       2.325876420891e+03 
       8.057867296419e-03       2.344752831385e+03 
       8.184366380511e-03       2.363221854735e+03 
       8.310933891452e-03       2.381286087356e+03 
       8.437567459747e-03       2.398973656194e+03 
       8.564264865796e-03       2.416309104813e+03 
       8.691024029938e-03       2.433195665821e+03 
       8.817843003303e-03       2.449683315201e+03 
       8.944719959402e-03       2.465787178873e+03 
       9.071653186381e-03       2.481513541037e+03 
       9.198641079881e-03       2.496868105366e+03 
       9.325682136463e-03       2.511855235555e+03 
       9.452774947534e-03       2.526475111363e+03 
       9.579918193735e-03       2.540732952664e+03 
       9.707110639761e-03       2.554634400425e+03 
       9.834351129567e-03       2.568181094710e+03 
       9.961638581928e-03       2.581375330332e+03 
       1.008897198633e-02       2.594225773171e+03 
       1.021635039917e-02       2.606737014670e+03 
       1.034377294021e-02       2.618910956864e+03 
       1.047123878932e-02       2.630753377469e+03 
       1.059874718342e-02       2.642265010421e+03 
       1.072629741368e-02       2.653451296961e+03 
       1.085388882286e-02       2.664317560444e+03 
       1.098152080293e-02       2.674864809122e+03 
       1.110919279274e-02       2.685097502135e+03 
       1.123690427598e-02       2.695020448144e+03 
       1.136465477916e-02       2.704635619842e+03 
       1.149244386983e-02       2.713947479031e+03 
       1.162027115487e-02       2.722958622758e+03 
       1.174813627892e-02       2.731674245529e+03 
       1.187603892289e-02       2.740096851196e+03 
       1.200397880263e-02       2.748229448313e+03 
       1.213195566765e-02       2.756075978960e+03 
       1.225996929991e-02       2.763640358422e+03 
       1.238801951276e-02       2.770925257299e+03 
       1.251610614994e-02       2.777934111471e+03 
       1.264422908455e-02       2.784670562982e+03 
       1.277238821826e-02       2.791137499878e+03 
       1.290058348047e-02       2.797338731452e+03 
       1.302881482753e-02       2.803277146638e+03 
       1.315708224209e-02       2.808955620537e+03 
       1.328538573239e-02       2.814379189028e+03 
       1.341372533177e-02       2.819548025202e+03 
       1.354210109800e-02       2.824467280587e+03 
       1.367051311290e-02       2.829139122696e+03 
       1.379896148180e-02       2.833568018237e+03 
       1.392744633314e-02       2.837754698487e+03 
       1.405596781811e-02       2.841703955812e+03 
       1.418452611030e-02       2.845417344002e+03 
       1.431312140538e-02       2.848898830721e+03 
       1.444175392083e-02       2.852151146663e+03 
       1.457042389569e-02       2.855177048193e+03 
       1.469913159036e-02       2.857978794670e+03 
       1.482787728638e-02       2.860560926236e+03 
       1.495666128631e-02       2.862925397306e+03 
       1.508548391358e-02       2.865078980570e+03 
       1.521434551237e-02       2.867013175503e+03 
       1.534324644752e-02       2.868742269482e+03 
       1.547218710453e-02       2.870266492530e+03 
       1.560116788943e-02       2.871587151237e+03 
       1.573018922884e-02       2.872706349289e+03 
       1.585925156992e-02       2.873627583041e+03 
       1.598835538045e-02       2.874352653599e+03 
       1.611750114883e-02       2.874884590108e+03 
       1.624668938416e-02       2.875225545276e+03 
       1.637592061632e-02       2.875378235148e+03 
       1.650519539609e-02       2.875346902469e+03 
       1.663451429525e-02       2.875133116192e+03 
       1.676387790673e-02       2.874736803666e+03 
       1.689328684478e-02       2.874164921005e+03 
       1.702274174510e-02       2.873417377682e+03 
       1.715224326507e-02       2.872497172458e+03 
       1.728179208396e-02       2.871406075624e+03 
       1.741138890313e-02       2.870148435408e+03 
       1.754103444628e-02       2.868724508753e+03 
       1.767072945972e-02       2.867138528801e+03 
       1.780047471265e-02       2.865392004624e+03 
       1.793027099742e-02       2.863487350982e+03 
       1.806011912987e-02       2.861426025191e+03 
       1.819001994964e-02       2.859209568034e+03 
       1.831997432051e-02       2.856848644804e+03 
       1.844998313077e-02       2.854332614046e+03 
       1.858004729358e-02       2.851671876713e+03 
       1.871016774738e-02       2.848869802964e+03 
       1.884034545629e-02       2.845921546914e+03 
       1.897058141053e-02       2.842835503897e+03 
       1.910087662686e-02       2.839612068797e+03 
       1.923123214907e-02       2.836252437701e+03 
       1.936164904842e-02       2.832759653460e+03 
       1.949212842419e-02       2.829134000571e+03 
       1.962267140414e-02       2.825384457039e+03 
       1.975327914506e-02       2.821501527979e+03 
       1.988395283336e-02       2.817500175743e+03 
       2.001469368562e-02       2.813370228431e+03 
       2.014550294914e-02       2.809126162024e+03 
       2.027638190265e-02       2.804762888219e+03 
       2.040733185685e-02       2.800279672001e+03 
       2.053835415511e-02       2.795683981994e+03 
       2.066945017417e-02       2.790977312777e+03 
       2.080062132478e-02       2.786157446054e+03 
       2.093186905248e-02       2.781227767440e+03 
       2.106319483831e-02       2.776196703027e+03 
       2.119460019958e-02       2.771057680785e+03 
       2.132608669070e-02       2.765817638441e+03 
       2.145765590396e-02       2.760476612185e+03 
       2.158930947039e-02       2.755035423168e+03 
       2.172104906064e-02       2.749497948987e+03 
       2.185287638586e-02       2.743866217670e+03 
       2.198479319866e-02       2.738135588076e+03 
       2.211680129404e-02       2.732326448961e+03 
       2.224890251037e-02       2.726423323913e+03 
       2.238109873044e-02       2.720423193934e+03 
       2.251339188248e-02       2.714344341930e+03 
       2.264578394127e-02       2.708178803802e+03 
       2.277827692923e-02       2.701933450237e+03 
       2.291087291758e-02       2.695610082978e+03 
       2.304357402754e-02       2.689198297102e+03 
       2.317638243154e-02       2.682711747109e+03 
       2.330930035449e-02       2.676153876804e+03 
       2.344233007508e-02       2.669529861478e+03 
       2.357547392713e-02       2.662817610885e+03 
       2.370873430097e-02       2.656043610625e+03 
       2.384211364487e-02       2.649194788399e+03 
       2.397561446655e-02       2.642282322146e+03 
       2.410923933465e-02       2.635302228118e+03 
       2.424299088034e-02       2.628260713846e+03 
       2.437687179893e-02       2.621152026203e+03 
       2.451088485157e-02       2.613982076613e+03 
       2.464503286695e-02       2.606756751795e+03 
       2.477931874311e-02       2.599469242031e+03 
       2.491374544928e-02       2.592122303744e+03 
       2.504831602780e-02       2.584722015308e+03 
       2.518303359606e-02       2.577274452824e+03 
       2.531790134858e-02       2.569770235994e+03 
       2.545292255909e-02       2.562209511366e+03 
       2.558810058270e-02       2.554602324152e+03 
       2.572343885821e-02       2.546951323298e+03 
       2.585894091033e-02       2.539247790254e+03 
       2.599461035220e-02       2.531498602219e+03 
       2.613045088782e-02       2.523708800383e+03 
       2.626646631462e-02       2.515872622409e+03 
       2.640266052619e-02       2.507995545366e+03 
       2.653903751497e-02       2.500075906298e+03 
       2.667560137515e-02       2.492124624458e+03 
       2.681235630561e-02       2.484127232590e+03 
       2.694930661304e-02       2.476103170109e+03 
       2.708645671503e-02       2.468035619837e+03 
       2.722381114346e-02       2.459923238630e+03 
       2.736137454784e-02       2.451793712938e+03 
       2.749915169889e-02       2.443619056945e+03 
       2.763714749221e-02       2.435428653950e+03 
       2.777536695208e-02       2.427200659979e+03 
       2.791381523543e-02       2.418949867017e+03 
       2.805249763591e-02       2.410662849302e+03 
       2.819141958821e-02       2.402348269899e+03 
       2.833058667240e-02       2.394013504731e+03 
       2.847000461863e-02       2.385654005421e+03 
       2.860967931181e-02       2.377270230030e+03 
       2.874961679664e-02       2.368862210058e+03 
       2.888982328275e-02       2.360429875221e+03 
       2.903030515006e-02       2.351985229134e+03 
       2.917106895438e-02       2.343519243113e+03 
       2.931212143323e-02       2.335033799921e+03 
       2.945346951187e-02       2.326523609388e+03 
       2.959512030961e-02       2.318005994241e+03 
       2.973708114638e-02       2.309469395776e+03 
       2.987935954958e-02       2.300914067274e+03 
       3.002196326119e-02       2.292343708216e+03 
       3.016490024521e-02       2.283766676547e+03 
       3.030817869544e-02       2.275174480001e+03 
       3.045180704355e-02       2.266568017735e+03 
       3.059579396754e-02       2.257955831095e+03 
       3.074014840054e-02       2.249324748518e+03 
       3.088487954009e-02       2.240691012884e+03 
       3.102999685771e-02       2.232050833828e+03 
       3.117551010899e-02       2.223389027360e+03 
       3.132142934416e-02       2.214730761266e+03 
       3.146776491904e-02       2.206065321367e+03 
       3.161452750668e-02       2.197387435702e+03 
       3.176172810933e-02       2.188714318266e+03 
       3.190937807119e-02       2.180028751748e+03 
       3.205748909164e-02       2.171346556124e+03 
       3.220607323913e-02       2.162652711033e+03 
       3.235514296583e-02       2.153956543497e+03 
       3.250471112290e-02       2.145259346102e+03 
       3.265479097661e-02       2.136558904355e+03 
       3.280539622520e-02       2.127852493127e+03 
       3.295654101666e-02       2.119154635149e+03 
       3.310823996743e-02       2.110445974721e+03 
       3.326050818198e-02       2.101750891917e+03 
       3.341336127357e-02       2.093045124771e+03 
       3.356681538599e-02       2.084343667513e+03 
       3.372088721650e-02       2.075637577690e+03 
       3.387559404007e-02       2.066940273450e+03 
       3.403095373488e-02       2.058238969573e+03 
       3.418698480928e-02       2.049542138802e+03 
       3.434370643024e-02       2.040854681988e+03 
       3.450113845343e-02       2.032162276763e+03 
       3.465930145501e-02       2.023481104136e+03 
       3.481821676531e-02       2.014791528179e+03 
       3.497790650440e-02       2.006110451255e+03 
       3.513839361987e-02       1.997434997053e+03 
       3.529970192680e-02       1.988766036313e+03 
       3.546185615025e-02       1.980097610481e+03 
       3.562488197025e-02       1.971434846053e+03 
       3.578880606969e-02       1.962773222513e+03 
       3.595365618517e-02       1.954113517603e+03 
       3.611946116117e-02       1.945463864568e+03 
       3.628625100759e-02       1.936815113569e+03 
       3.645405696120e-02       1.928180248639e+03 
       3.662291155106e-02       1.919540612770e+03 
       3.679284866841e-02       1.910909601744e+03 
       3.696390364122e-02       1.902283293696e+03 
       3.713611331400e-02       1.893664304893e+03 
       3.730951613305e-02       1.885046505074e+03 
       3.748415223790e-02       1.876437586062e+03 
       3.766006355916e-02       1.867825230742e+03 
       3.783729392360e-02       1.859224902826e+03 
       3.801588916695e-02       1.850622319055e+03 
       3.819589725515e-02       1.842024248220e+03 
       3.837736841482e-02       1.833437541743e+03 
       3.856035527375e-02       1.824846335421e+03 
       3.874491301246e-02       1.816257297389e+03 
       3.893109952773e-02       1.807674717220e+03 
       3.911897560932e-02       1.799091322804e+03 
       3.930860513123e-02       1.790516112159e+03 
       3.950005525877e-02       1.781938277821e+03 
       3.969339667327e-02       1.773361717313e+03 
       3.988870381591e-02       1.764786212118e+03 
       4.008605515304e-02       1.756207761616e+03 
       4.028553346491e-02       1.747628073597e+03 
       4.048722616051e-02       1.739051135501e+03 
       4.069122562140e-02       1.730474428959e+03 
       4.089762957753e-02       1.721886726895e+03 
       4.110654151897e-02       1.713302189659e+03 
       4.131807114740e-02       1.704708492858e+03 
       4.153233487216e-02       1.696109927657e+03 
       4.174945635618e-02       1.687504804576e+03 
       4.196956711777e-02       1.678894569063e+03 
       4.219280719523e-02       1.670272229761e+03 
       4.241932588217e-02       1.661638655034e+03 
       4.264928254266e-02       1.652998912401e+03 
       4.288284751670e-02       1.644341675431e+03 
       4.312020312800e-02       1.635670747807e+03 
       4.336154480817e-02       1.626986211408e+03 
       4.360708235341e-02       1.618283565714e+03 
       4.385704133272e-02       1.609560459578e+03 
       4.411166466950e-02       1.600814487949e+03 
       4.437121442248e-02       1.592047162010e+03 
       4.463597379617e-02       1.583251345848e+03 
       4.490624941661e-02       1.574427808230e+03 
       4.518237391452e-02       1.565574025996e+03 
       4.546470886602e-02       1.556688898155e+03 
       4.575364815048e-02       1.547759094830e+03 
       4.604962179678e-02       1.538795108072e+03 
       4.635310040348e-02       1.529782565895e+03 
       4.666460023582e-02       1.520724837567e+03 
       4.698468912418e-02       1.511609595282e+03 
       4.731399331514e-02       1.502443620941e+03 
       4.765320545965e-02       1.493209063979e+03 
       4.800309396416e-02       1.483908581912e+03 
       4.836451398262e-02       1.474529454485e+03 
       4.873842039279e-02       1.465070797595e+03 
       4.912588318267e-02       1.455518890343e+03 
       4.952810577815e-02       1.445868758011e+03 
       4.994644697591e-02       1.436104760992e+03 
       5.038244731550e-02       1.426219606038e+03 
       5.083786094101e-02       1.416198811734e+03 
       5.131469427834e-02       1.406028820860e+03 
       5.181525320399e-02       1.395684537008e+03 
       5.234220082169e-02       1.385148081493e+03 
       5.289862851019e-02       1.374393943121e+03 
       5.348814356721e-02       1.363392586547e+03 
       5.411497753953e-02       1.352100567354e+03 
       5.478412013664e-02       1.340478020504e+03 
       5.550148430854e-02       1.328462129879e+03 
       5.627410824320e-02       1.315985135117e+03 
       5.711039889327e-02       1.302947776996e+03 
       5.802041754952e-02       1.289227981390e+03 
       5.901619785973e-02       1.274669424098e+03 
       6.011206507084e-02       1.259056388990e+03 
       6.132488337632e-02       1.242107502887e+03 
